ASHRAE, Carbon dioxide
Carbon dioxide
Density [kg/m^3]
T [K] / X [-],0.000,1.000
220.0,1167.5,15.84
225.0,1148.7,19.30
230.0,1129.5,23.33
235.0,1109.7,27.99
240.0,1089.2,33.37
245.0,1068.1,39.57
250.0,1046.2,46.72
255.0,1023.4,54.95
260.0,999.4,64.45
265.0,974.0,75.45
270.0,946.9,88.27
275.0,917.7,103.4
280.0,885.6,121.3
285.0,849.5,143.2
290.0,807.4,170.8
295.0,755.0,208.0
