ASHRAE, Carbon dioxide
Carbon dioxide
Dynamic viscosity [Pa·s]
T [K] / X [-],0.000,1.000
220.0,2.72E-4,1.13E-5
225.0,2.37E-4,1.18E-5
230.0,2.08E-4,1.22E-5
235.0,1.83E-4,1.26E-5
240.0,1.63E-4,1.29E-5
245.0,1.46E-4,1.31E-5
250.0,1.33E-4,1.34E-5
255.0,1.23E-4,1.37E-5
260.0,1.14E-4,1.40E-5
265.0,1.07E-4,1.45E-5
270.0,1.02E-4,1.50E-5
275.0,9.65E-5,1.58E-5
280.0,9.13E-5,1.67E-5
285.0,8.56E-5,1.78E-5
290.0,7.88E-5,1.91E-5
295.0,7.03E-5,2.07E-5
