ASHRAE, Carbon dioxide
Carbon dioxide
Heat of evaporation [J/(kg·K)]
T [K],H_evap
220.0,346099.5
225.0,337191.1
230.0,327998.5
235.0,318642.5
240.0,309099.2
245.0,299161.0
250.0,288738.8
255.0,277731.8
260.0,266048.6
265.0,253574.3
270.0,240133.6
275.0,225459.4
280.0,209165.2
285.0,190695.3
290.0,169151.3
295.0,142623.6
